Frequency (Hz),Measured Intensity,Position X (m),Position Y (m),Position Z (m)
200,0.06,0,0,0
400,0.12,0,0,0
600,0.22,0,0,0
800,0.45,0,0,0
1000,0.78,0,0,0
1100,0.87,0,0,0
1200,0.98,0,0,0
1300,0.91,0,0,0
1400,0.74,0,0,0
1600,0.48,0,0,0
1800,0.25,0,0,0
2000,0.13,0,0,0